# rotation correlation for "bonds: name(#1) Ow and name(#2) Hw" in LiCl-20M/0-GPa/bulk.nc
# step value
0 1
1 0.777494
2 0.740401
3 0.711284
4 0.692435
5 0.677966
6 0.665948
7 0.655304
8 0.645457
9 0.636456
10 0.62807
11 0.620199
12 0.612856
13 0.606029
14 0.599579
15 0.593425
16 0.587624
17 0.581913
18 0.576402
19 0.571029
20 0.565846
21 0.560923
22 0.55615
23 0.551563
24 0.547104
25 0.542777
26 0.538458
27 0.534294
28 0.530141
29 0.526273
30 0.52243
31 0.518729
32 0.515052
33 0.511421
34 0.507923
35 0.504563
36 0.501161
37 0.497891
38 0.494761
39 0.491564
40 0.488462
41 0.48546
42 0.482414
43 0.479357
44 0.476431
45 0.473665
46 0.470776
47 0.468065
48 0.465258
49 0.462504
50 0.459898
51 0.457251
52 0.454569
53 0.451855
54 0.449354
55 0.446838
56 0.444579
57 0.442224
58 0.440002
59 0.437576
60 0.435324
61 0.4331
62 0.430978
63 0.428804
64 0.426739
65 0.424598
66 0.422459
67 0.420401
68 0.418382
69 0.416334
70 0.414405
71 0.412384
72 0.410559
73 0.408615
74 0.406717
75 0.404848
76 0.402947
77 0.401094
78 0.399281
79 0.397329
80 0.395544
81 0.393802
82 0.391992
83 0.390347
84 0.388596
85 0.386885
86 0.385214
87 0.383439
88 0.381785
89 0.380126
90 0.378625
91 0.376987
92 0.375363
93 0.373711
94 0.372236
95 0.370645
96 0.36896
97 0.367534
98 0.366096
99 0.364622
100 0.363145
101 0.361621
102 0.360081
103 0.358649
104 0.357226
105 0.355805
106 0.354411
107 0.352993
108 0.351514
109 0.350107
110 0.348707
111 0.347295
112 0.346011
113 0.344705
114 0.34349
115 0.342068
116 0.340868
117 0.339607
118 0.338375
119 0.337138
120 0.335851
121 0.334591
122 0.333454
123 0.332169
124 0.331025
125 0.329727
126 0.328666
127 0.327446
128 0.326214
129 0.325136
130 0.323954
131 0.322858
132 0.321704
133 0.320668
134 0.319546
135 0.318417
136 0.3172
137 0.316191
138 0.315182
139 0.31412
140 0.313178
141 0.31196
142 0.31098
143 0.310027
144 0.308957
145 0.307824
146 0.306794
147 0.305832
148 0.304811
149 0.303765
150 0.302803
151 0.301797
152 0.300895
153 0.299909
154 0.298937
155 0.298022
156 0.297083
157 0.296154
158 0.295208
159 0.294352
160 0.293375
161 0.292464
162 0.291503
163 0.290499
164 0.289447
165 0.288613
166 0.287688
167 0.286891
168 0.285894
169 0.284999
170 0.284164
171 0.283252
172 0.282415
173 0.281435
174 0.280661
175 0.279772
176 0.278904
177 0.278038
178 0.277187
179 0.276425
180 0.275568
181 0.274819
182 0.273961
183 0.273227
184 0.272393
185 0.271582
186 0.270638
187 0.269799
188 0.269055
189 0.268279
190 0.267575
191 0.266731
192 0.26597
193 0.265146
194 0.264264
195 0.263449
196 0.262776
197 0.261961
198 0.261226
199 0.260564
200 0.25993
201 0.259226
202 0.258475
203 0.257695
204 0.256846
205 0.256084
206 0.255394
207 0.254722
208 0.253936
209 0.253156
210 0.252413
211 0.251766
212 0.25116
213 0.250366
214 0.249675
215 0.249016
216 0.248361
217 0.247509
218 0.246915
219 0.246171
220 0.245501
221 0.244818
222 0.244031
223 0.243516
224 0.242833
225 0.242224
226 0.24149
227 0.240807
228 0.239999
229 0.23932
230 0.238734
231 0.238019
232 0.237314
233 0.23681
234 0.236159
235 0.235475
236 0.234921
237 0.234246
238 0.233605
239 0.23299
240 0.232355
241 0.231787
242 0.231113
243 0.230554
244 0.229937
245 0.229302
246 0.228785
247 0.228197
248 0.22759
249 0.22699
250 0.226362
251 0.225786
252 0.225209
253 0.22469
254 0.224075
255 0.223546
256 0.222998
257 0.222444
258 0.221802
259 0.221258
260 0.220648
261 0.220083
262 0.219472
263 0.218914
264 0.218287
265 0.217746
266 0.21723
267 0.216566
268 0.21603
269 0.215446
270 0.21482
271 0.214305
272 0.213823
273 0.213228
274 0.212633
275 0.212059
276 0.211542
277 0.210964
278 0.210538
279 0.210005
280 0.209481
281 0.208971
282 0.208413
283 0.207987
284 0.207501
285 0.206866
286 0.206385
287 0.205894
288 0.20544
289 0.204926
290 0.204365
291 0.20389
292 0.203349
293 0.203015
294 0.202395
295 0.20198
296 0.201519
297 0.201043
298 0.200643
299 0.200195
300 0.19965
301 0.199304
302 0.198792
303 0.198377
304 0.197911
305 0.197433
306 0.196961
307 0.196506
308 0.196132
309 0.195652
310 0.19513
311 0.194752
312 0.194456
313 0.193923
314 0.193633
315 0.1932
316 0.192832
317 0.192502
318 0.192104
319 0.191753
320 0.191158
321 0.190758
322 0.190463
323 0.190063
324 0.189639
325 0.189139
326 0.1887
327 0.18829
328 0.187818
329 0.187447
330 0.187024
331 0.186691
332 0.186384
333 0.185977
334 0.185586
335 0.185021
336 0.184678
337 0.184276
338 0.183941
339 0.183648
340 0.183216
341 0.182932
342 0.182586
343 0.182279
344 0.181838
345 0.181559
346 0.181068
347 0.18064
348 0.180382
349 0.180023
350 0.179606
351 0.179289
352 0.178869
353 0.178535
354 0.178153
355 0.177794
356 0.177402
357 0.177002
358 0.176643
359 0.176237
360 0.175827
361 0.175539
362 0.175218
363 0.174846
364 0.174513
365 0.174147
366 0.173868
367 0.173373
368 0.17317
369 0.172822
370 0.172507
371 0.172181
372 0.17184
373 0.171471
374 0.171034
375 0.170758
376 0.170425
377 0.170138
378 0.169732
379 0.169366
380 0.169013
381 0.168758
382 0.168358
383 0.168069
384 0.167756
385 0.167473
386 0.167087
387 0.166792
388 0.166489
389 0.166083
390 0.165834
391 0.165629
392 0.165255
393 0.165026
394 0.164637
395 0.164376
396 0.164142
397 0.163869
398 0.163633
399 0.163286
400 0.162953
401 0.162753
402 0.162438
403 0.162123
404 0.162042
405 0.161724
406 0.161511
407 0.161206
408 0.160874
409 0.160666
410 0.160385
411 0.160131
412 0.159861
413 0.159552
414 0.159251
415 0.158959
416 0.158737
417 0.158409
418 0.158042
419 0.157773
420 0.157516
421 0.157301
422 0.157058
423 0.156778
424 0.156595
425 0.156265
426 0.155945
427 0.155689
428 0.155454
429 0.155132
430 0.154859
431 0.154597
432 0.154462
433 0.154212
434 0.153975
435 0.153726
436 0.153434
437 0.153216
438 0.152973
439 0.152738
440 0.152372
441 0.152184
442 0.15191
443 0.151708
444 0.151525
445 0.151283
446 0.151018
447 0.150797
448 0.150514
449 0.150318
450 0.150082
451 0.149842
452 0.149647
453 0.149367
454 0.149019
455 0.148791
456 0.148574
457 0.148369
458 0.1481
459 0.147931
460 0.147675
461 0.147407
462 0.14722
463 0.146995
464 0.146754
465 0.146566
466 0.146294
467 0.146099
468 0.145808
469 0.145588
470 0.145379
471 0.145122
472 0.144938
473 0.144621
474 0.144509
475 0.144318
476 0.144165
477 0.144073
478 0.143806
479 0.143597
480 0.143502
481 0.14326
482 0.1431
483 0.142857
484 0.142593
485 0.142468
486 0.1422
487 0.141885
488 0.141677
489 0.14154
490 0.141359
491 0.141173
492 0.140904
493 0.140721
494 0.140568
495 0.140302
496 0.140077
497 0.139969
498 0.139707
499 0.139586
500 0.13944
501 0.139155
502 0.138946
503 0.138706
504 0.138451
505 0.1382
506 0.138013
507 0.137828
508 0.137633
509 0.137512
510 0.137291
511 0.1371
512 0.136924
513 0.136684
514 0.136451
515 0.136275
516 0.136177
517 0.135906
518 0.135711
519 0.135462
520 0.135263
521 0.135141
522 0.134965
523 0.134816
524 0.134603
525 0.134445
526 0.134253
527 0.13407
528 0.13392
529 0.133799
530 0.133662
531 0.133532
532 0.133359
533 0.133263
534 0.133006
535 0.132873
536 0.132708
537 0.132542
538 0.13241
539 0.132216
540 0.132131
541 0.131993
542 0.131875
543 0.131765
544 0.131539
545 0.131401
546 0.131049
547 0.130943
548 0.130762
549 0.130688
550 0.130408
551 0.130316
552 0.130096
553 0.129868
554 0.129727
555 0.129541
556 0.129424
557 0.129215
558 0.12897
559 0.128829
560 0.128635
561 0.128469
562 0.128292
563 0.128121
564 0.128044
565 0.127762
566 0.127711
567 0.12746
568 0.12734
569 0.127221
570 0.127103
571 0.127011
572 0.126683
573 0.126608
574 0.1264
575 0.12624
576 0.126098
577 0.125825
578 0.125604
579 0.12535
580 0.12523
581 0.124867
582 0.124757
583 0.124543
584 0.124388
585 0.12419
586 0.123994
587 0.123864
588 0.123689
589 0.123447
590 0.12327
591 0.123124
592 0.123013
593 0.122892
594 0.122744
595 0.122617
596 0.122401
597 0.122237
598 0.122076
599 0.121806
600 0.121647
601 0.121501
602 0.121308
603 0.121154
604 0.12093
605 0.120699
606 0.120558
607 0.120537
608 0.120408
609 0.12028
610 0.120107
611 0.119928
612 0.119684
613 0.119487
614 0.119305
615 0.119213
616 0.119032
617 0.118966
618 0.118832
619 0.118537
620 0.118413
621 0.118313
622 0.118212
623 0.117944
624 0.117715
625 0.117724
626 0.117606
627 0.117384
628 0.117214
629 0.117125
630 0.116981
631 0.116823
632 0.116592
633 0.116502
634 0.116329
635 0.116201
636 0.116044
637 0.115897
638 0.11573
639 0.115562
640 0.115535
641 0.115381
642 0.115309
643 0.115088
644 0.114955
645 0.114901
646 0.114719
647 0.114547
648 0.114426
649 0.114255
650 0.114092
651 0.113901
652 0.113768
653 0.113701
654 0.113632
655 0.113493
656 0.113361
657 0.113345
658 0.113211
659 0.113165
660 0.113046
661 0.112941
662 0.112887
663 0.112769
664 0.112671
665 0.112456
666 0.11239
667 0.112226
668 0.112137
669 0.112075
670 0.11194
671 0.111762
672 0.111592
673 0.111568
674 0.111414
675 0.111191
676 0.111094
677 0.110908
678 0.110793
679 0.110732
680 0.110614
681 0.110532
682 0.110386
683 0.110336
684 0.110202
685 0.110115
686 0.110035
687 0.10981
688 0.109727
689 0.109523
690 0.109393
691 0.109294
692 0.109212
693 0.109
694 0.108927
695 0.108902
696 0.108715
697 0.108596
698 0.10848
699 0.108338
700 0.108191
701 0.108033
702 0.107972
703 0.107877
704 0.107806
705 0.107711
706 0.10768
707 0.107539
708 0.107487
709 0.107327
710 0.10723
711 0.107149
712 0.106965
713 0.106891
714 0.106834
715 0.106741
716 0.106622
717 0.106426
718 0.106278
719 0.10606
720 0.105929
721 0.105915
722 0.105784
723 0.105718
724 0.105691
725 0.105515
726 0.105287
727 0.105191
728 0.104982
729 0.105019
730 0.104869
731 0.104835
732 0.104663
733 0.10458
734 0.104432
735 0.104378
736 0.104266
737 0.104209
738 0.104155
739 0.104115
740 0.10394
741 0.103816
742 0.103676
743 0.103625
744 0.10353
745 0.103415
746 0.103362
747 0.103175
748 0.103079
749 0.103011
750 0.102912
751 0.102839
752 0.102824
753 0.102713
754 0.102629
755 0.10253
756 0.1024
757 0.102393
758 0.102201
759 0.102174
760 0.101951
761 0.10183
762 0.101815
763 0.101761
764 0.101637
765 0.10154
766 0.10137
767 0.101274
768 0.10124
769 0.101074
770 0.100964
771 0.100789
772 0.100666
773 0.100668
774 0.100478
775 0.100358
776 0.100316
777 0.100195
778 0.100039
779 0.1001
780 0.099961
781 0.0998476
782 0.0997893
783 0.09974
784 0.0997377
785 0.0996051
786 0.0993879
787 0.0994269
788 0.0992425
789 0.0992544
790 0.0991384
791 0.0990812
792 0.0989605
793 0.098924
794 0.0988803
795 0.0987667
796 0.0986715
797 0.098617
798 0.0985289
799 0.0984992
800 0.0984553
801 0.0983495
802 0.0982611
803 0.0980752
804 0.0980274
805 0.0979953
806 0.0978701
807 0.0978481
808 0.0977322
809 0.097591
810 0.097636
811 0.0975362
812 0.0974209
813 0.0975334
814 0.0973874
815 0.0973336
816 0.0972217
817 0.0971442
818 0.0970302
819 0.0970091
820 0.0968719
821 0.0968563
822 0.0968234
823 0.0966692
824 0.0966778
825 0.0965676
826 0.0965116
827 0.0964921
828 0.0963063
829 0.0963084
830 0.0962526
831 0.0960283
832 0.096031
833 0.0960706
834 0.0959209
835 0.0958639
836 0.0956381
837 0.09562
838 0.0954306
839 0.095385
840 0.0954561
841 0.0952556
842 0.0952698
843 0.0951502
844 0.0950962
845 0.0949983
846 0.0950344
847 0.094937
848 0.0947632
849 0.0946402
850 0.0944799
851 0.0944636
852 0.0944599
853 0.0943882
854 0.0943441
855 0.0942968
856 0.0942044
857 0.0941868
858 0.094047
859 0.0939678
860 0.0939071
861 0.0939628
862 0.0939697
863 0.0938656
864 0.0937986
865 0.0936842
866 0.0936705
867 0.093652
868 0.0935582
869 0.0934321
870 0.0933344
871 0.0933076
872 0.0931962
873 0.0931109
874 0.0930433
875 0.0929388
876 0.0927781
877 0.0927095
878 0.0926473
879 0.0926962
880 0.09262
881 0.09254
882 0.0924579
883 0.0922595
884 0.0922294
885 0.0921636
886 0.0921215
887 0.0920423
888 0.0919939
889 0.0918033
890 0.0917065
891 0.091727
892 0.0916239
893 0.0915318
894 0.0915247
895 0.0913171
896 0.0912775
897 0.0912694
898 0.0912205
899 0.0910872
900 0.0910473
901 0.0910178
902 0.0908219
903 0.0907577
904 0.0908378
905 0.0907789
906 0.0907484
907 0.0906543
908 0.0905373
909 0.0904568
910 0.090481
911 0.0903398
912 0.0902715
913 0.0900006
914 0.0901586
915 0.0899701
916 0.0898703
917 0.0897935
918 0.0897918
919 0.0897493
920 0.089742
921 0.0898248
922 0.0897178
923 0.0896596
924 0.089537
925 0.089447
926 0.0894091
927 0.0893521
928 0.0891671
929 0.089208
930 0.0891399
931 0.0891333
932 0.0889174
933 0.0888352
934 0.0886853
935 0.0885708
936 0.088497
937 0.0884381
938 0.0884595
939 0.0882843
940 0.0882198
941 0.0881047
942 0.0880725
943 0.0880383
944 0.0878594
945 0.0877358
946 0.0875199
947 0.0873743
948 0.0872548
949 0.0871111
950 0.087084
951 0.0870361
952 0.0869101
953 0.0868912
954 0.0868027
955 0.0866421
956 0.0865051
957 0.0863841
958 0.0863389
959 0.0862343
960 0.0861223
961 0.0859994
962 0.0859736
963 0.0858769
964 0.0858275
965 0.0856463
966 0.08561
967 0.0855565
968 0.0854875
969 0.0854363
970 0.0853735
971 0.0853302
972 0.0852486
973 0.085279
974 0.0852126
975 0.0851234
976 0.0850422
977 0.084968
978 0.0849974
979 0.0849346
980 0.0847833
981 0.0847055
982 0.084656
983 0.0844479
984 0.08447
985 0.0843173
986 0.0844131
987 0.0843079
988 0.0841946
989 0.0841948
990 0.0841215
991 0.0841817
992 0.0840662
993 0.0840739
994 0.0840938
995 0.0838962
996 0.0837824
997 0.0836408
998 0.0835792
999 0.0834732
1000 0.0833967
1001 0.0833259
1002 0.0832478
1003 0.0832671
1004 0.0832193
1005 0.0830515
1006 0.0829437
1007 0.0828307
1008 0.0826409
1009 0.0825838
1010 0.0825698
1011 0.08239
1012 0.0822458
1013 0.0822327
1014 0.0821235
1015 0.0820325
1016 0.0820076
1017 0.0819533
1018 0.0819052
1019 0.0817767
1020 0.0817129
1021 0.0816617
1022 0.0816801
1023 0.0814624
1024 0.0814962
1025 0.0813949
1026 0.0813622
1027 0.0813177
1028 0.0812289
1029 0.0811392
1030 0.0810812
1031 0.081013
1032 0.0809796
1033 0.0810102
1034 0.0809285
1035 0.0808038
1036 0.0808337
1037 0.0807982
1038 0.0806693
1039 0.0806749
1040 0.0805636
1041 0.0804969
1042 0.0803783
1043 0.0803465
1044 0.0802572
1045 0.0802159
1046 0.0801516
1047 0.0802122
1048 0.0800704
1049 0.0800207
1050 0.0798308
1051 0.0797474
1052 0.0797206
1053 0.0796656
1054 0.0797266
1055 0.0795778
1056 0.0795324
1057 0.0794762
1058 0.0795473
1059 0.0794635
1060 0.079431
1061 0.0793158
1062 0.0793937
1063 0.0793101
1064 0.0792482
1065 0.0792492
1066 0.0792258
1067 0.0791044
1068 0.0790944
1069 0.079025
1070 0.0790515
1071 0.0790057
1072 0.0789323
1073 0.078915
1074 0.0788143
1075 0.0787996
1076 0.0787426
1077 0.0786808
1078 0.0786844
1079 0.0785888
1080 0.0785218
1081 0.0785828
1082 0.0785484
1083 0.0784533
1084 0.0784217
1085 0.0784096
1086 0.0783006
1087 0.0782963
1088 0.078282
1089 0.0782444
1090 0.0781981
1091 0.0781032
1092 0.0781461
1093 0.0782253
1094 0.0781698
1095 0.0779976
1096 0.0779451
1097 0.0778763
1098 0.0778743
1099 0.0778549
1100 0.0778043
1101 0.0777985
1102 0.0777677
1103 0.0777647
1104 0.0778019
1105 0.0777103
1106 0.077708
1107 0.0776041
1108 0.0776101
1109 0.0775766
1110 0.0774923
1111 0.0774601
1112 0.0774523
1113 0.077365
1114 0.077414
1115 0.0774194
1116 0.0773391
1117 0.0772204
1118 0.0772489
1119 0.0771566
1120 0.0771858
1121 0.0771595
1122 0.0771274
1123 0.0770273
1124 0.0769158
1125 0.0770465
1126 0.0769106
1127 0.0768245
1128 0.076907
1129 0.0767294
1130 0.0767356
1131 0.0767282
1132 0.076632
1133 0.0765579
1134 0.0764444
1135 0.0764872
1136 0.076472
1137 0.0764119
1138 0.0763322
1139 0.0762321
1140 0.0761248
1141 0.0760422
1142 0.0759099
1143 0.0758312
1144 0.0757898
1145 0.0757385
1146 0.0757917
1147 0.0756558
1148 0.0755301
1149 0.075455
1150 0.0754417
1151 0.0754685
1152 0.0752929
1153 0.0753309
1154 0.0753215
1155 0.075286
1156 0.0753226
1157 0.0752888
1158 0.0752169
1159 0.0750447
1160 0.0750169
1161 0.0749684
1162 0.0749299
1163 0.0749605
1164 0.0748677
1165 0.0747633
1166 0.0747616
1167 0.0746801
1168 0.0745823
1169 0.0745999
1170 0.0744438
1171 0.0743463
1172 0.074336
1173 0.0743668
1174 0.0742804
1175 0.0743123
1176 0.0741968
1177 0.0741338
1178 0.0741665
1179 0.0741071
1180 0.0740129
1181 0.0740196
1182 0.0740114
1183 0.0740218
1184 0.0739903
1185 0.0739579
1186 0.0739475
1187 0.0739596
1188 0.0738838
1189 0.0737904
1190 0.0737002
1191 0.0738899
1192 0.073825
1193 0.0738186
1194 0.0739176
1195 0.0737938
1196 0.0738275
1197 0.0737815
1198 0.0737705
1199 0.0736538
1200 0.0736082
1201 0.073495
1202 0.0734899
1203 0.0735061
1204 0.0734667
1205 0.0733286
1206 0.0734013
1207 0.0733097
1208 0.0733263
1209 0.073408
1210 0.0733181
1211 0.073351
1212 0.0734232
1213 0.0733336
1214 0.0732904
1215 0.0732099
1216 0.073186
1217 0.0730797
1218 0.0729909
1219 0.0729823
1220 0.072926
1221 0.072837
1222 0.0727654
1223 0.0728089
1224 0.0727705
1225 0.0727563
1226 0.0727541
1227 0.0727232
1228 0.0726569
1229 0.0725355
1230 0.0726071
1231 0.0726014
1232 0.0724259
1233 0.072488
1234 0.0725443
1235 0.0725558
1236 0.0726468
1237 0.0725806
1238 0.0726529
1239 0.072622
1240 0.072664
1241 0.0726143
1242 0.0727533
1243 0.0727289
1244 0.0726264
1245 0.0726106
1246 0.0726172
1247 0.0726054
1248 0.0725799
1249 0.0724675
1250 0.0725192
1251 0.0724785
1252 0.0725175
1253 0.0724911
1254 0.0724999
1255 0.0724964
1256 0.072478
1257 0.0724069
1258 0.0724012
1259 0.0723297
1260 0.0723036
1261 0.0721974
1262 0.0722323
1263 0.0721952
1264 0.0720643
1265 0.0721192
1266 0.0720659
1267 0.0720354
1268 0.072094
1269 0.0720498
1270 0.0720229
1271 0.0719599
1272 0.0718883
1273 0.071824
1274 0.0717443
1275 0.0716925
1276 0.0717462
1277 0.0715906
1278 0.0716124
1279 0.0715481
1280 0.0714351
1281 0.0714699
1282 0.0713744
1283 0.0713899
1284 0.0713938
1285 0.0712758
1286 0.0712095
1287 0.0711818
1288 0.0711532
1289 0.0711846
1290 0.071103
1291 0.0711906
1292 0.071097
1293 0.0710383
1294 0.0710504
1295 0.0709022
1296 0.0708039
1297 0.0707896
1298 0.0708396
1299 0.0707217
1300 0.0707475
1301 0.0707532
1302 0.070739
1303 0.0707055
1304 0.0706978
1305 0.0707202
1306 0.0706265
1307 0.0705107
1308 0.0704319
1309 0.0704339
1310 0.0703866
1311 0.070461
1312 0.0704987
1313 0.0704822
1314 0.0704796
1315 0.0703416
1316 0.0702163
1317 0.0701436
1318 0.0702515
1319 0.0701921
1320 0.0702664
1321 0.0702253
1322 0.070189
1323 0.0701798
1324 0.0700526
1325 0.0699999
1326 0.0698674
1327 0.0697902
1328 0.0698386
1329 0.069779
1330 0.0696872
1331 0.0696899
1332 0.0696464
1333 0.0695646
1334 0.0695254
1335 0.0695515
1336 0.0694835
1337 0.0693602
1338 0.0693727
1339 0.0692955
1340 0.0692304
1341 0.0691356
1342 0.0690081
1343 0.0690174
1344 0.0690711
1345 0.0690105
1346 0.0689477
1347 0.068974
1348 0.0689448
1349 0.0689471
1350 0.0689259
1351 0.0688606
1352 0.0687979
1353 0.068859
1354 0.0688103
1355 0.0687296
1356 0.0686784
1357 0.0686191
1358 0.0685952
1359 0.0686241
1360 0.0686989
1361 0.0686131
1362 0.0685877
1363 0.0685592
1364 0.0684638
1365 0.0685131
1366 0.0684904
1367 0.0685287
1368 0.0685353
1369 0.0686549
1370 0.0684547
1371 0.0684153
1372 0.0683591
1373 0.0683333
1374 0.0683202
1375 0.0682743
1376 0.06825
1377 0.0682362
1378 0.068171
1379 0.0680926
1380 0.0681068
1381 0.0681247
1382 0.0680531
1383 0.0681155
1384 0.0680667
1385 0.0681006
1386 0.0681083
1387 0.068176
1388 0.0681506
1389 0.0680497
1390 0.0679989
1391 0.0679828
1392 0.0678718
1393 0.0677908
1394 0.0676935
1395 0.0677621
1396 0.0677518
1397 0.0676342
1398 0.0674533
1399 0.0673853
1400 0.0672953
1401 0.0672585
1402 0.0672095
1403 0.0672193
1404 0.0672834
1405 0.0671404
1406 0.0671012
1407 0.0671136
1408 0.0670955
1409 0.0670438
1410 0.0669734
1411 0.06709
1412 0.0669519
1413 0.0669789
1414 0.0669079
1415 0.0668156
1416 0.0668671
1417 0.0668367
1418 0.0667909
1419 0.0667821
1420 0.066738
1421 0.066765
1422 0.0666984
1423 0.06663
1424 0.0666607
1425 0.0667469
1426 0.0666611
1427 0.066605
1428 0.0666061
1429 0.0666651
1430 0.0665419
1431 0.0664837
1432 0.0664849
1433 0.0664312
1434 0.0664132
1435 0.0664366
1436 0.0663964
1437 0.066333
1438 0.0662722
1439 0.0662485
1440 0.0662678
1441 0.0661102
1442 0.0661025
1443 0.0660824
1444 0.0660236
1445 0.0661025
1446 0.0660205
1447 0.0659798
1448 0.0660167
1449 0.0660864
1450 0.0659696
1451 0.0658376
1452 0.0657355
1453 0.0656763
1454 0.0656866
1455 0.0656125
1456 0.0656002
1457 0.0655132
1458 0.0654962
1459 0.0654365
1460 0.0653576
1461 0.0654061
1462 0.0653632
1463 0.0652642
