# rotation correlation for "bonds: name(#1) Ow and name(#2) Hw" in LiCl-1M/0-GPa/bulk.nc
# step value
0 0.999999
1 0.778909
2 0.712464
3 0.660777
4 0.622049
5 0.590745
6 0.563141
7 0.537798
8 0.51407
9 0.492099
10 0.471339
11 0.451927
12 0.433567
13 0.416227
14 0.399728
15 0.38424
16 0.369504
17 0.355468
18 0.342267
19 0.329556
20 0.317412
21 0.305725
22 0.294643
23 0.284084
24 0.273982
25 0.264251
26 0.254891
27 0.245963
28 0.237471
29 0.229216
30 0.221269
31 0.213668
32 0.206379
33 0.199487
34 0.192737
35 0.186393
36 0.180138
37 0.174177
38 0.168431
39 0.162991
40 0.157654
41 0.152423
42 0.147519
43 0.142805
44 0.1381
45 0.13361
46 0.129377
47 0.125246
48 0.121277
49 0.117392
50 0.113698
51 0.110189
52 0.106708
53 0.103422
54 0.100225
55 0.0971465
56 0.094155
57 0.0913068
58 0.0884437
59 0.0858422
60 0.0832679
61 0.0808066
62 0.0784079
63 0.0760468
64 0.073768
65 0.0716771
66 0.0694975
67 0.0674346
68 0.0654014
69 0.0634781
70 0.0615739
71 0.0597335
72 0.0580433
73 0.056251
74 0.0546128
75 0.0529324
76 0.0513802
77 0.0498196
78 0.048416
79 0.0470325
80 0.0456794
81 0.0443751
82 0.0430523
83 0.0418152
84 0.0405757
85 0.0393672
86 0.0382286
87 0.0371414
88 0.0360542
89 0.0350969
90 0.0340612
91 0.0330614
92 0.0321909
93 0.0312526
94 0.0303704
95 0.0296346
96 0.0288876
97 0.0280237
98 0.0272228
99 0.0264602
100 0.0256563
101 0.0250405
102 0.0243879
103 0.0237423
104 0.0231742
105 0.0225832
106 0.022079
107 0.0215319
108 0.0209545
109 0.0204154
110 0.0200085
111 0.0194987
112 0.0190076
113 0.0185157
114 0.0180842
115 0.0176408
116 0.0171779
117 0.0168291
118 0.0164163
119 0.0160133
120 0.0155732
121 0.0151417
122 0.0147918
123 0.0144882
124 0.0141258
125 0.0137491
126 0.0134243
127 0.0130599
128 0.012719
129 0.0124587
130 0.0122058
131 0.0119847
132 0.0117972
133 0.0115355
134 0.0113419
135 0.0110456
136 0.0108453
137 0.0106602
138 0.0105042
139 0.0102475
140 0.010025
141 0.00982666
142 0.00959569
143 0.00938582
144 0.0090456
145 0.00881916
146 0.00855267
147 0.00841308
148 0.00823492
149 0.00800747
150 0.00782877
151 0.00762075
152 0.00737804
153 0.0072695
154 0.00708425
155 0.00695336
156 0.00681221
157 0.00658858
158 0.00647289
159 0.00633854
160 0.0061121
161 0.00602472
162 0.0058673
163 0.00567245
164 0.00547695
165 0.00546396
166 0.00526786
167 0.00520754
168 0.00515443
169 0.0051384
170 0.0049901
171 0.00491911
172 0.004852
173 0.00480223
174 0.00463575
175 0.00452775
176 0.00444406
177 0.00430858
178 0.00428635
179 0.00421315
180 0.00415415
181 0.00408614
182 0.00401223
183 0.00392765
184 0.0038349
185 0.00369799
186 0.00370723
187 0.00368983
188 0.00356799
189 0.00354546
190 0.00346142
191 0.00344974
192 0.00341755
193 0.00331402
194 0.00321221
195 0.00318837
196 0.00315934
197 0.0030874
198 0.00302184
199 0.00295997
200 0.0028975
201 0.00288385
202 0.00289088
203 0.00279027
204 0.00263125
205 0.00263608
206 0.00251865
207 0.00246954
208 0.00236601
209 0.00228763
210 0.00227207
211 0.00228482
212 0.00230467
213 0.00224507
214 0.00219911
215 0.00216681
216 0.00213248
217 0.00207847
218 0.00199753
219 0.00196934
220 0.00193524
221 0.00193149
222 0.00193197
223 0.00185424
224 0.00181907
225 0.00184399
226 0.0017764
227 0.00173295
228 0.00173521
229 0.0017646
230 0.00172251
231 0.00178379
232 0.00170034
233 0.0017463
234 0.00166672
235 0.00169677
236 0.00172353
237 0.00175214
238 0.00179124
239 0.00179207
240 0.00176978
241 0.00179493
242 0.00173682
243 0.00168639
244 0.00175446
245 0.0017615
246 0.0017966
247 0.00177276
248 0.00175858
249 0.00170898
250 0.0016821
251 0.00161195
252 0.00162756
253 0.00154853
254 0.00145644
255 0.00158703
256 0.00159883
257 0.00158054
258 0.00150162
259 0.00154757
260 0.00152647
261 0.00149256
262 0.0014112
263 0.00143528
264 0.00134897
265 0.00135648
266 0.00133449
267 0.00139004
268 0.00143325
269 0.00142092
270 0.00139356
271 0.00148302
272 0.00148547
273 0.00140595
274 0.00144905
275 0.00146306
276 0.00143462
277 0.00145459
278 0.00147092
279 0.00142348
280 0.0013563
281 0.00136477
282 0.00134367
283 0.00130647
284 0.00126588
285 0.0012235
286 0.00125211
287 0.00123119
288 0.00122029
289 0.00119233
290 0.00120509
291 0.00119263
292 0.00111133
293 0.00108773
294 0.001077
295 0.00110871
296 0.00114185
297 0.00111824
298 0.00107461
299 0.00109714
300 0.00108176
301 0.00105208
302 0.00101554
303 0.000948429
304 0.00104666
305 0.000982761
306 0.00106913
307 0.000943422
308 0.000920534
309 0.000962973
310 0.000991404
311 0.00097841
312 0.000893056
313 0.000943661
314 0.000997722
315 0.000988543
316 0.000853539
317 0.000830531
318 0.000843108
319 0.000765681
320 0.000650704
321 0.000500441
322 0.000410914
323 0.000396848
324 0.000410795
325 0.000415266
326 0.000414133
327 0.000413835
328 0.000475168
329 0.000496328
330 0.000490725
331 0.000396132
332 0.000314832
333 0.000357747
334 0.000443578
335 0.000480175
336 0.000425756
337 0.000394344
338 0.000318408
339 0.000330865
340 0.000305295
341 0.000369132
342 0.000357628
343 0.000385344
344 0.00044173
345 0.000453711
346 0.000429749
347 0.000361085
348 0.000362754
349 0.000301242
350 0.000301242
351 0.00024879
352 0.000281394
353 0.000172615
354 0.000147462
355 0.000138819
356 1.14441e-05
357 -6.52671e-06
358 -6.78301e-05
359 -0.000107944
360 -0.000267148
361 -0.000257403
362 -0.000267535
363 -0.000391573
364 -0.000402927
365 -0.000410974
366 -0.000451356
367 -0.000448227
368 -0.000408798
369 -0.00041604
370 -0.000439674
371 -0.000498921
372 -0.000477731
373 -0.000546575
374 -0.000622779
375 -0.000633389
376 -0.000683486
377 -0.000667155
378 -0.000660896
379 -0.000654846
380 -0.000669569
381 -0.000664175
382 -0.000702977
383 -0.000641435
384 -0.000650793
385 -0.000710219
386 -0.000733852
387 -0.000785083
388 -0.000824869
389 -0.00083369
390 -0.000866175
391 -0.000806421
392 -0.000831157
393 -0.000858217
394 -0.000818372
395 -0.000802994
396 -0.000808209
397 -0.000831515
398 -0.000790745
399 -0.000726521
400 -0.000731885
401 -0.00077641
402 -0.000726461
403 -0.000723749
404 -0.000659078
405 -0.000638843
406 -0.000672579
407 -0.000674337
408 -0.000652313
409 -0.000680983
410 -0.000672728
411 -0.000731528
412 -0.000690669
413 -0.000621349
414 -0.000729412
415 -0.000767589
416 -0.000812232
417 -0.000845701
418 -0.000839651
419 -0.000850171
420 -0.000789493
421 -0.000787526
422 -0.000768632
423 -0.000691384
424 -0.000655711
425 -0.000687629
426 -0.000678718
427 -0.000686258
428 -0.000594705
429 -0.000613481
430 -0.000540733
431 -0.00050506
432 -0.000408918
433 -0.00032559
434 -0.000335634
435 -0.000256062
436 -0.000242561
437 -0.000241876
438 -0.000217199
439 -0.000143588
440 -0.000100434
441 3.96371e-05
442 4.60148e-05
443 1.01328e-06
444 4.76837e-07
445 -9.74536e-06
446 -2.59876e-05
447 -6.06775e-05
448 -1.69873e-06
449 -5.89192e-05
450 -1.35005e-05
451 -1.33812e-05
452 9.97186e-05
453 9.91225e-05
454 0.00014478
455 0.000234187
456 0.000232577
457 0.000244975
458 0.00022608
459 0.000333309
460 0.000263155
461 0.000274301
462 0.000252366
463 0.000250876
464 0.000265658
465 0.000402331
466 0.000438571
467 0.000382423
468 0.000346661
469 0.000375926
470 0.000305414
471 0.000326693
472 0.000291467
473 0.000344992
474 0.000303388
475 0.000340879
476 0.0003227
477 0.000346661
478 0.000407517
479 0.000402927
480 0.000339687
481 0.000201344
482 0.000125349
483 7.14064e-05
484 2.64645e-05
485 9.04202e-05
486 0.000193954
487 0.00011307
488 0.000142038
489 0.000169754
490 0.000218809
491 0.000224173
492 0.000267446
493 0.000252366
494 0.000188887
495 0.000162303
496 0.000134289
497 0.00014782
498 0.000126958
499 0.000110388
500 9.59039e-05
501 9.63807e-05
502 0.000111282
503 0.000108898
504 7.84993e-05
505 3.1054e-05
506 7.67112e-05
507 0.000113308
508 0.000111878
509 0.000118136
510 0.000161409
511 0.000154257
512 0.000154674
513 0.000182688
514 0.000139296
515 0.000196934
516 0.000209928
517 0.000256717
518 0.000290513
519 0.000199378
520 7.93338e-05
521 6.60419e-05
522 0.000113726
523 0.000169992
524 0.000169754
525 9.03606e-05
526 5.77569e-05
527 9.42349e-05
528 0.000225246
529 0.000200987
530 0.000137925
531 0.00023222
532 0.000111938
533 6.76513e-05
534 7.03335e-05
535 3.43323e-05
536 -4.35114e-05
537 1.88351e-05
538 -5.09918e-05
539 -5.53429e-05
540 -4.45545e-05
541 -0.00015974
542 -7.07805e-05
543 -0.000100791
544 -8.32975e-05
545 1.37091e-06
546 -8.96752e-05
547 4.35114e-06
548 4.76241e-05
549 1.87159e-05
550 -5.53131e-05
551 -2.67923e-05
552 -1.508e-05
553 -2.17259e-05
554 1.8537e-05
555 7.53999e-05
556 0.000179887
557 0.000108898
558 0.000135422
559 0.000194669
560 0.000192761
561 0.000152051
562 0.000188291
563 0.000182092
564 0.00016588
565 0.000219703
566 0.000245929
567 0.000296831
568 0.000261009
569 0.000277281
570 0.000260353
571 0.000237107
572 0.000227988
573 0.000222802
574 0.000161111
575 0.000149727
576 0.000130773
577 7.39694e-05
578 9.89437e-06
579 -7.92742e-06
580 -9.95398e-06
581 4.74453e-05
582 -2.98023e-05
583 -2.77162e-06
584 3.83258e-05
585 4.57168e-05
586 4.31538e-05
587 -6.88434e-06
588 2.02656e-06
589 -6.13034e-05
590 -1.69873e-06
591 4.39286e-05
592 6.42538e-05
593 1.84774e-06
594 -6.24657e-05
595 -0.000144541
596 -0.000180751
597 -0.000139713
598 -0.000195205
599 -0.000191212
600 -0.000255793
601 -0.000183672
602 -0.000231206
603 -0.000264913
604 -0.000255585
605 -0.000290364
606 -0.000282198
607 -0.00026539
608 -0.00037688
609 -0.000317097
610 -0.000264615
611 -0.000184327
612 -0.000190616
613 -0.000191182
614 -0.000141412
615 -3.46303e-05
616 5.68628e-05
617 4.95911e-05
618 7.689e-05
619 0.000114381
620 0.000180244
621 0.000201404
622 0.000232875
623 0.000218987
624 0.000292361
625 0.000301898
626 0.000291288
627 0.00033313
628 0.000355005
629 0.000333309
630 0.000326812
631 0.000322938
632 0.000322819
633 0.000348091
634 0.000397027
635 0.000334918
636 0.00031811
637 0.000192165
638 0.000226557
639 0.000270724
640 0.000329316
641 0.000228584
642 0.000207663
643 0.000218272
644 0.000209391
645 0.000202954
646 0.000114918
647 0.000153124
648 0.000101388
649 0.000184774
650 0.000136733
651 0.000125945
652 8.63075e-05
653 0.00017488
654 0.000126719
655 0.000188589
656 0.000124574
657 0.000153661
658 0.000110984
659 6.75321e-05
660 -1.87159e-05
661 6.02603e-05
662 0.000127137
663 7.99298e-05
664 8.01682e-05
665 0.000128984
666 0.000203729
667 0.00013876
668 0.000198245
669 0.000226438
670 0.000269473
671 0.000284374
672 0.000322104
673 0.000398695
674 0.000457287
675 0.000532746
676 0.0005548
677 0.000587046
678 0.000529826
679 0.000527918
680 0.000561118
681 0.000586748
682 0.000589132
683 0.000596344
684 0.000534415
685 0.000501931
686 0.000458539
687 0.000386477
688 0.000434756
689 0.00040096
690 0.00040251
691 0.000432372
692 0.000391722
693 0.000391304
694 0.000447869
695 0.000407398
696 0.000482678
697 0.000454068
698 0.000487268
699 0.000469208
700 0.000379205
701 0.000266314
702 0.000278592
703 0.00030005
704 0.000264764
705 0.000237942
706 0.00017786
707 0.000145435
708 0.000201106
709 0.000182867
710 0.000253975
711 0.000177324
712 0.000139952
713 0.000167131
714 0.000138044
715 0.000210226
716 0.000222147
717 0.000295281
718 0.000320613
719 0.000348747
720 0.000311553
721 0.000302792
722 0.000348747
723 0.000345767
724 0.000315964
725 0.000327229
726 0.000297487
727 0.000292242
728 0.000314891
729 0.000344515
730 0.000294209
731 0.000312269
732 0.000312686
733 0.0002895
734 0.000188231
735 0.000121236
736 0.000116289
737 3.92199e-05
738 9.78708e-05
739 9.13143e-05
740 7.29561e-05
741 8.36253e-05
742 6.32405e-05
743 1.77622e-05
744 0.000153661
745 9.80496e-05
746 0.00015986
747 0.000166774
748 0.000243783
749 0.000157893
750 0.000134468
751 0.000222027
752 0.000261843
753 0.000137627
754 0.000237823
755 0.000208378
756 0.000286043
757 0.000394464
758 0.000399292
759 0.00045985
760 0.000501633
761 0.00059855
762 0.000719368
763 0.000780523
764 0.000810564
765 0.000725448
766 0.000765443
767 0.000706196
768 0.000667274
769 0.000660419
770 0.000673354
771 0.000681579
772 0.000742495
773 0.000723243
774 0.00081408
775 0.000848889
776 0.000890434
777 0.000870466
778 0.0008111
779 0.000849247
780 0.000824094
781 0.000801921
782 0.000818968
783 0.000785112
784 0.000757873
785 0.000684679
786 0.000656664
787 0.000633001
788 0.000676215
789 0.000620663
790 0.000581682
791 0.000598192
792 0.000503898
793 0.000473201
794 0.000356734
795 0.000325203
796 0.000288844
797 0.000264287
798 0.000304103
799 0.000258923
800 0.00022006
801 0.00022912
802 0.000204563
803 0.000208199
804 0.000244021
805 0.000210762
806 0.000270426
807 0.000180721
808 0.000193477
809 0.000201821
810 0.000213385
811 0.000181675
812 0.000137329
813 0.000108063
814 0.000150323
815 0.000110924
816 0.000145018
817 7.98702e-05
818 0.000120044
819 0.000123084
820 0.000161707
821 0.000211835
822 0.00017941
823 0.000129402
824 4.88758e-05
825 6.59823e-05
826 2.70605e-05
827 -1.99676e-05
828 -4.78029e-05
829 -3.91006e-05
830 -0.000163853
831 -0.000184238
832 -0.000144511
833 -0.000167906
834 -0.000210106
835 -0.000251859
836 -0.000270784
837 -0.000291973
838 -0.000455916
839 -0.000444293
840 -0.000452101
841 -0.000508308
842 -0.000573099
843 -0.000662088
844 -0.000707775
845 -0.000816822
846 -0.000782073
847 -0.00075835
848 -0.000789583
849 -0.000813514
850 -0.000835121
851 -0.000921458
852 -0.000995487
853 -0.00116086
854 -0.00115538
855 -0.0010694
856 -0.0010888
857 -0.00105709
858 -0.0010747
859 -0.000942409
860 -0.000959426
861 -0.000988007
862 -0.000977814
863 -0.000939429
864 -0.00087598
865 -0.000767976
866 -0.000721872
867 -0.000690997
868 -0.000584811
869 -0.000584781
870 -0.000512093
871 -0.00047937
872 -0.000475228
873 -0.000505835
874 -0.000588804
875 -0.000597
876 -0.000611842
877 -0.00057748
878 -0.000435263
879 -0.000460267
880 -0.000450999
881 -0.000517249
882 -0.000531793
883 -0.00061065
884 -0.000566632
885 -0.000520259
886 -0.00044027
887 -0.00034675
888 -0.000520855
889 -0.000365227
890 -0.000429302
891 -0.000411779
892 -0.000349611
893 -0.000384808
894 -0.000321388
895 -0.000320256
896 -0.000356913
897 -0.000337541
898 -0.00032413
899 -0.000286698
900 -0.00025326
901 -0.000236779
902 -0.0001975
903 -0.00022915
904 -0.00016126
905 -0.000131875
906 -0.000215828
907 -0.000216722
908 -0.000254124
909 -0.000269234
910 -0.00022918
911 -0.000195444
912 -0.000104517
913 -5.18858e-05
914 -0.000111967
915 -8.72016e-05
916 -7.66814e-05
917 -3.02196e-05
918 3.93391e-06
919 -1.67787e-05
920 -2.58982e-05
921 -1.2666e-05
922 -5.36442e-06
923 5.48363e-06
924 5.56111e-05
925 0.000127017
926 7.43866e-05
927 9.90033e-05
928 0.000105858
929 0.00016582
930 0.000135303
931 6.59227e-05
932 4.26173e-05
933 0.000129998
934 0.000165999
935 0.000163019
936 0.000152647
937 0.000151098
938 0.000168443
939 0.000180781
940 0.000239968
941 0.000230968
942 0.000171781
943 0.000228107
944 0.000151753
945 0.00020498
946 0.000255287
947 0.000297666
948 0.000443459
949 0.000449598
950 0.000460684
951 0.000378311
952 0.00045228
953 0.000449717
954 0.000488222
955 0.000466526
956 0.000597596
957 0.000638187
958 0.000622392
959 0.000627697
960 0.00056237
961 0.00058645
962 0.000548363
963 0.000519514
964 0.000391722
965 0.000443578
966 0.000373781
967 0.000351071
968 0.000380158
969 0.000294566
970 0.000266731
971 0.000295818
972 0.000229955
973 0.000237763
974 0.000173092
975 0.000171602
976 0.000217438
977 0.000228047
978 0.000232518
979 0.000196934
980 0.000115633
981 8.56519e-05
982 7.92742e-06
983 -1.21593e-05
984 -9.89735e-05
985 -4.8548e-05
986 -1.60933e-06
987 -3.63588e-05
988 -8.30591e-05
989 -4.8548e-05
990 -6.7085e-05
991 -3.68357e-05
992 -7.68304e-05
993 3.14713e-05
994 4.22001e-05
995 9.0301e-05
996 0.000123978
997 0.000162125
998 0.000191808
999 0.000202537
1000 0.00022161
1001 0.000175953
1002 0.000115931
1003 3.85046e-05
1004 5.33462e-05
1005 1.01328e-05
1006 -6.64592e-06
1007 2.5332e-05
1008 0.000116765
1009 5.62072e-05
1010 -4.70877e-06
1011 -5.06341e-05
1012 -0.000122428
1013 -0.000115514
1014 -0.000171512
1015 -8.24332e-05
1016 -4.06802e-05
1017 -3.02196e-05
1018 -4.46737e-05
1019 -6.3926e-05
1020 -3.38852e-05
1021 -5.18858e-05
1022 -1.43051e-06
1023 2.51532e-05
1024 2.65241e-05
1025 1.62125e-05
1026 7.62343e-05
1027 2.26498e-05
1028 0.000150025
1029 8.95262e-05
1030 0.000108302
1031 9.15527e-05
1032 0.000104487
1033 5.91278e-05
1034 7.22408e-05
1035 1.0848e-05
1036 -3.43025e-05
1037 -2.17557e-06
1038 4.75049e-05
1039 0.000125587
1040 0.000125885
1041 0.000150084
1042 0.000184894
1043 0.000180185
1044 0.000217378
1045 0.000173092
1046 0.000147104
1047 0.00023067
1048 0.000276983
1049 0.000315785
1050 0.000401556
1051 0.000468254
1052 0.000562847
1053 0.000611544
1054 0.000662982
1055 0.000620544
1056 0.000599682
1057 0.000653565
1058 0.00075984
1059 0.000770032
1060 0.000849903
1061 0.000848472
1062 0.000844359
1063 0.000765383
1064 0.000877321
1065 0.000886679
1066 0.000911295
1067 0.000849783
1068 0.000829995
1069 0.000830233
1070 0.000938416
1071 0.000971317
1072 0.000968277
1073 0.000990927
1074 0.0010311
1075 0.000970483
1076 0.000939488
1077 0.000964344
1078 0.000948787
1079 0.00100756
1080 0.00106412
1081 0.00108081
1082 0.00115943
1083 0.00106198
1084 0.000989854
1085 0.00102752
1086 0.00092715
1087 0.000933349
1088 0.000877559
1089 0.000911117
1090 0.000904858
1091 0.000878811
1092 0.000792265
1093 0.000802577
1094 0.000788689
1095 0.000878036
1096 0.00094384
1097 0.000968337
1098 0.000972629
1099 0.000882208
1100 0.000858605
1101 0.00074929
1102 0.000679731
1103 0.000611365
1104 0.00061357
1105 0.000617087
1106 0.000653386
1107 0.00060159
1108 0.000564516
1109 0.000582874
1110 0.000522375
1111 0.000468731
1112 0.00047785
1113 0.000464559
1114 0.000410259
1115 0.000449419
1116 0.00037545
1117 0.00028801
1118 0.000237525
1119 0.000320375
1120 0.000301182
1121 0.000252247
1122 0.000230193
1123 0.000206351
1124 0.00018549
1125 0.000145137
1126 0.00014919
1127 0.000178576
1128 0.000144899
1129 0.000120759
1130 3.46303e-05
1131 -6.02007e-06
1132 -6.53267e-05
1133 -5.05745e-05
1134 -0.000136793
1135 -0.000136942
1136 -6.82473e-05
1137 -7.42078e-05
1138 -7.28369e-05
1139 -0.000251919
1140 -0.000377774
1141 -0.000422746
1142 -0.000461251
1143 -0.000487775
1144 -0.000465751
1145 -0.000510067
1146 -0.000637025
1147 -0.000561208
1148 -0.000494957
1149 -0.000512123
1150 -0.000449538
1151 -0.000363469
1152 -0.000398785
1153 -0.000465512
1154 -0.000483245
1155 -0.000444174
1156 -0.000394106
1157 -0.000348151
1158 -0.000341713
1159 -0.000276893
1160 -0.000209868
1161 -0.000261396
1162 -0.000295401
1163 -0.000265986
1164 -0.000190347
1165 -0.000196964
1166 -0.000274837
1167 -0.000191957
1168 -0.000166535
1169 -0.000176817
1170 -0.000205189
1171 -0.000192165
1172 -0.000175476
1173 -0.000130475
1174 -0.00017795
1175 -0.000206649
1176 -0.000191659
1177 -0.000128895
1178 -0.000173658
1179 -0.000227004
1180 -0.000178784
1181 -0.0001522
1182 -0.000143677
1183 -0.000159085
1184 -0.00018248
1185 -0.000150532
1186 -0.000105083
1187 -0.000157833
1188 -0.000176251
1189 -0.000171572
1190 -0.000220507
1191 -0.000202298
1192 -0.000161469
1193 -0.000204593
1194 -0.000205845
1195 -0.000231951
1196 -0.000193357
1197 -0.000204533
1198 -0.000211954
1199 -0.000213742
1200 -0.000112832
1201 -0.000179648
1202 -0.000144094
1203 -0.000181735
1204 -0.00017783
1205 -0.000163555
1206 -0.000233293
1207 -0.000236392
1208 -0.000294149
1209 -0.000350595
1210 -0.00038746
1211 -0.00028953
1212 -0.000320941
1213 -0.0002473
1214 -0.000217855
1215 -0.00012058
1216 -5.93364e-05
1217 -3.27826e-07
1218 0.00011456
1219 3.6478e-05
1220 2.06828e-05
1221 -4.00245e-05
1222 -2.16365e-05
1223 2.07424e-05
1224 1.47223e-05
1225 1.2517e-06
1226 3.76701e-05
1227 2.13981e-05
1228 -2.70605e-05
1229 4.20809e-05
1230 8.76784e-05
1231 0.000107408
1232 0.00011301
1233 0.000123501
1234 -2.65241e-06
1235 8.15392e-05
1236 1.87159e-05
1237 5.13196e-05
1238 0.00011301
1239 0.000151396
1240 0.000166416
1241 0.00016737
1242 0.000212193
1243 0.000211537
1244 0.00021863
1245 0.000173688
1246 0.000191629
1247 0.000188887
1248 0.000188947
1249 0.000258923
1250 0.000191987
1251 0.000265479
1252 0.000374913
1253 0.000336707
