# rotation correlation for "bonds: name(#1) Ow and name(#2) Hw" in LiCl-1M/0-GPa/zif8-licl.nc
# step value
0 1
1 0.551156
2 0.45995
3 0.398025
4 0.351177
5 0.313966
6 0.283489
7 0.257891
8 0.236125
9 0.217587
10 0.201394
11 0.187284
12 0.174815
13 0.163797
14 0.153803
15 0.144845
16 0.136891
17 0.129706
18 0.123139
19 0.117103
20 0.11163
21 0.106529
22 0.101928
23 0.0977256
24 0.0938263
25 0.0902951
26 0.0868701
27 0.0836698
28 0.0807317
29 0.0780223
30 0.0753945
31 0.0731453
32 0.0708233
33 0.0686634
34 0.0666022
35 0.0648269
36 0.0628887
37 0.0613362
38 0.0598255
39 0.058307
40 0.0567872
41 0.0554363
42 0.0541551
43 0.0528573
44 0.0517154
45 0.0505884
46 0.0496734
47 0.0485101
48 0.0474571
49 0.0465805
50 0.0456439
51 0.0447584
52 0.0439658
53 0.0432027
54 0.0425724
55 0.0418197
56 0.0411288
57 0.0405264
58 0.0398433
59 0.0392787
60 0.0386407
61 0.0380816
62 0.0375125
63 0.037052
64 0.0364904
65 0.0360163
66 0.0355805
67 0.0351675
68 0.0346819
69 0.0342094
70 0.0337277
71 0.0332249
72 0.0328442
73 0.032354
74 0.0319393
75 0.0316219
76 0.0311752
77 0.03083
78 0.0303952
79 0.0300637
80 0.0297109
81 0.029456
82 0.0292312
83 0.0289942
84 0.0285721
85 0.0283247
86 0.0279936
87 0.0277087
88 0.0273651
89 0.0271329
90 0.0267662
91 0.0263713
92 0.0260709
93 0.0257064
94 0.0254219
95 0.0251231
96 0.0247921
97 0.0244632
98 0.0242816
99 0.0240078
100 0.0237294
101 0.0234831
102 0.0233414
103 0.0232224
104 0.0230492
105 0.022875
106 0.0226831
107 0.0224704
108 0.0222834
109 0.0221238
110 0.0218737
111 0.0217739
112 0.0215094
113 0.0213113
114 0.0212258
115 0.0210423
116 0.0208338
117 0.0205747
118 0.0204245
119 0.0203458
120 0.02025
121 0.0200317
122 0.0198962
123 0.0196579
124 0.0194613
125 0.0192068
126 0.0191624
127 0.0190457
128 0.0187443
129 0.0185763
130 0.0185093
131 0.0183599
132 0.0181751
133 0.0179747
134 0.0178375
135 0.0176427
136 0.0176083
137 0.0174776
138 0.0172338
139 0.0171732
140 0.0170001
141 0.0169193
142 0.0167781
143 0.0167465
144 0.0165702
145 0.0164457
146 0.0163355
147 0.0162015
148 0.0160378
149 0.0159675
150 0.0158772
151 0.0157452
152 0.0156456
153 0.0155434
154 0.0154486
155 0.0153029
156 0.015148
157 0.0151437
158 0.0149996
159 0.014922
160 0.0149443
161 0.0147787
162 0.0146911
163 0.0145342
164 0.0144337
165 0.0142977
166 0.0142092
167 0.0141295
168 0.0140158
169 0.0139704
170 0.0137973
171 0.0137192
172 0.0136229
173 0.0134645
174 0.0133845
175 0.0133975
176 0.0133191
177 0.0132599
178 0.0131392
179 0.0130463
180 0.0130472
181 0.0129262
182 0.0128998
183 0.0127516
184 0.0127875
185 0.0125194
186 0.012502
187 0.0124055
188 0.0123835
189 0.0123011
190 0.0122938
191 0.0121809
192 0.0122183
193 0.0120033
194 0.0119656
195 0.0119362
196 0.0118417
197 0.0117677
198 0.011651
199 0.0115486
200 0.011541
201 0.0114183
202 0.0113436
203 0.0112125
204 0.011155
205 0.0109777
206 0.0109612
207 0.0108345
208 0.0108084
209 0.0107982
210 0.010693
211 0.0106332
212 0.0106037
213 0.0105652
214 0.0105249
215 0.0104393
216 0.0105063
217 0.0103872
218 0.0104204
219 0.0103211
220 0.0103435
221 0.0102987
222 0.0102672
223 0.0101856
224 0.0100862
225 0.00992656
226 0.00982606
227 0.00970441
228 0.00970757
229 0.00964969
230 0.00961602
231 0.00955796
232 0.00948328
233 0.00947517
234 0.0093556
235 0.00923508
236 0.00924176
237 0.00917029
238 0.00911212
239 0.00900108
240 0.00895035
241 0.00881499
242 0.0087136
243 0.00877154
244 0.00859737
245 0.00865388
246 0.00859576
247 0.00854886
248 0.00844324
249 0.00837886
250 0.00851154
251 0.00838935
252 0.00839418
253 0.00835317
254 0.00832856
255 0.00838655
256 0.00846589
257 0.00827271
258 0.00818592
259 0.00818592
260 0.00813025
261 0.00808239
262 0.00801706
263 0.0079608
264 0.00791246
265 0.00797594
266 0.00800198
267 0.00800216
268 0.00792968
269 0.00795126
270 0.00789338
271 0.00777406
272 0.00785708
273 0.00794286
274 0.00787657
275 0.00792027
276 0.00788486
277 0.00786573
278 0.00777876
279 0.00776708
280 0.0076263
281 0.00768739
282 0.0076437
283 0.00751138
284 0.00760686
285 0.00749069
286 0.0074867
287 0.007465
288 0.00743955
289 0.00744641
290 0.00741106
291 0.00737685
292 0.00729352
293 0.00728625
294 0.00722033
295 0.00717896
296 0.00711322
297 0.00707209
298 0.00711244
299 0.00713992
300 0.00703806
301 0.00699991
302 0.00693202
303 0.00693589
304 0.00686616
305 0.0068301
306 0.00675255
307 0.00672585
308 0.00662732
309 0.00657946
310 0.00672007
311 0.00665915
312 0.00676298
313 0.00670564
314 0.00661445
315 0.0065769
316 0.00643241
317 0.00635469
318 0.00630307
319 0.00624347
320 0.00621223
321 0.00623357
322 0.00622278
323 0.00623387
324 0.00622284
325 0.00610316
326 0.00609159
327 0.00623798
328 0.00616688
329 0.00610453
330 0.00608927
331 0.00596201
332 0.00590658
333 0.00590217
334 0.00587994
335 0.00585985
336 0.00584859
337 0.00583583
338 0.00588185
339 0.00579578
340 0.0057925
341 0.0058338
342 0.00581896
343 0.00582713
344 0.00581628
345 0.00570393
346 0.00568455
347 0.00558203
348 0.00559324
349 0.00558716
350 0.00558871
351 0.00550729
352 0.00542557
353 0.0054701
354 0.005364
355 0.00537086
356 0.00528169
357 0.00536257
358 0.00538027
359 0.00528812
360 0.00533783
361 0.0054391
362 0.0054549
363 0.00549978
364 0.00555456
365 0.00554144
366 0.00565124
367 0.00556964
368 0.00549936
369 0.00548929
370 0.00543308
371 0.00535625
372 0.00537944
373 0.00538278
374 0.00532538
375 0.0053528
376 0.0052644
377 0.00528651
378 0.00523949
379 0.00524741
380 0.00523645
381 0.00519472
382 0.00519246
383 0.0051803
384 0.00521541
385 0.00519794
386 0.00517404
387 0.00514758
388 0.00509679
389 0.00507545
390 0.00504071
391 0.00496322
392 0.00494367
393 0.00479168
394 0.00472414
395 0.00468987
396 0.00477457
397 0.0048328
398 0.00477058
399 0.00477296
400 0.00483298
401 0.00463259
402 0.00459331
403 0.00458181
404 0.00444174
405 0.0044772
406 0.00454265
407 0.00453252
408 0.0044536
409 0.0045445
410 0.00451368
411 0.0045051
412 0.00447291
413 0.00449616
414 0.00442541
415 0.00442851
416 0.00440478
417 0.00446796
418 0.00436068
419 0.00441784
420 0.00446784
421 0.00437737
422 0.00442326
423 0.00440419
424 0.00437343
425 0.00437504
426 0.0044297
427 0.00440085
428 0.0044595
429 0.00443977
430 0.00439852
431 0.00446105
432 0.00438577
433 0.00447571
434 0.00440198
435 0.00440663
436 0.00444669
437 0.00443351
438 0.00434494
439 0.00436932
440 0.00439727
441 0.00437742
442 0.00434595
443 0.00429934
444 0.00425535
445 0.00426263
446 0.00431859
447 0.00430071
448 0.00432187
449 0.00429755
450 0.00430954
451 0.00423849
452 0.00417435
453 0.00413662
454 0.00417697
455 0.0041905
456 0.00427461
457 0.00423259
458 0.00420028
459 0.00417817
460 0.00406313
461 0.0041123
462 0.00411618
463 0.00411838
464 0.00395519
465 0.00398225
466 0.00405461
467 0.00405055
468 0.00404751
469 0.0040797
470 0.00402063
471 0.00414217
472 0.00412226
473 0.00409323
474 0.00409073
475 0.00396997
476 0.00409847
477 0.00397795
478 0.00402737
479 0.00391597
480 0.003833
481 0.00378507
482 0.00378585
483 0.00385773
484 0.00390393
485 0.00387877
486 0.00384098
487 0.00377727
488 0.00377125
489 0.00388026
490 0.00382388
491 0.00385094
492 0.00385278
493 0.00394434
494 0.00378346
495 0.00387466
496 0.00376672
497 0.00377303
498 0.00373513
499 0.00373948
500 0.0037201
501 0.0037334
502 0.00370693
503 0.00369793
504 0.00370544
505 0.00372845
506 0.0036518
507 0.00365269
508 0.00363547
509 0.00358915
510 0.00355005
511 0.00356632
512 0.00359851
513 0.00366896
514 0.00363177
515 0.00354791
516 0.00348485
517 0.00347
518 0.00337231
519 0.00350308
520 0.00343621
521 0.00345606
522 0.0034073
523 0.00345981
524 0.00349939
525 0.0035032
526 0.00346816
527 0.00341541
528 0.0034377
529 0.00335544
530 0.00325233
531 0.00323516
532 0.00324106
533 0.00322181
534 0.00317132
535 0.0031389
536 0.00315982
537 0.00320005
538 0.00319153
539 0.00323027
540 0.00320119
541 0.00323719
542 0.00330812
543 0.00330454
544 0.00324774
545 0.00330931
546 0.00327277
547 0.00326216
548 0.00325602
549 0.00325322
550 0.00319415
551 0.00322592
552 0.0031752
553 0.00314945
554 0.00323695
555 0.00309885
556 0.00311232
557 0.00312269
558 0.00301993
559 0.00298816
560 0.00291783
561 0.0028913
562 0.00302207
563 0.00299144
564 0.00305367
565 0.00305659
566 0.00307715
567 0.00300276
568 0.00301474
569 0.00307173
570 0.00307947
571 0.00303161
572 0.00296068
573 0.00291646
574 0.00288868
575 0.00286651
576 0.00279301
577 0.00290084
578 0.00275129
579 0.00275075
580 0.00292742
581 0.00288081
582 0.0028528
583 0.00281733
584 0.00280267
585 0.00274616
586 0.00276273
587 0.00267345
588 0.00262535
589 0.00273341
590 0.00259429
591 0.00266284
592 0.00261986
593 0.00264561
594 0.0026077
595 0.00260204
596 0.00267446
597 0.00269145
598 0.00273752
599 0.00282466
600 0.00273556
601 0.0026527
602 0.0026809
603 0.00260293
604 0.002639
605 0.00265098
606 0.00267702
607 0.00260633
608 0.00252151
609 0.002437
610 0.00242496
611 0.00242394
612 0.00227052
613 0.00223869
614 0.00230068
615 0.00223267
616 0.00225389
617 0.00222087
618 0.00224328
619 0.00224721
620 0.0022155
621 0.00213772
622 0.00215864
623 0.00217521
624 0.00211293
625 0.00209546
626 0.00219297
627 0.00211132
628 0.00212353
629 0.00214201
630 0.00218129
631 0.00221884
632 0.00228
633 0.00219536
634 0.00229567
635 0.00228792
636 0.00237876
637 0.00243747
638 0.00237596
639 0.00239104
640 0.00235605
641 0.00243688
642 0.00235695
643 0.00229341
644 0.00239241
645 0.0023151
646 0.00233501
647 0.00232369
648 0.00229979
649 0.00221205
650 0.00218332
651 0.00225383
652 0.00224245
653 0.00222284
654 0.00215286
655 0.00209355
656 0.00213158
657 0.00208038
658 0.00216091
659 0.00214702
660 0.00227773
661 0.00223327
662 0.0022648
663 0.00225645
664 0.00233823
665 0.0022791
666 0.0022493
667 0.00227565
668 0.00231802
669 0.00233728
670 0.00236088
671 0.00233972
672 0.00238943
673 0.00236756
674 0.00232697
675 0.00232923
676 0.00227726
677 0.00229269
678 0.00221527
679 0.00230765
680 0.00219381
681 0.00219536
682 0.0021621
683 0.00207537
684 0.00213856
685 0.00215852
686 0.00216109
687 0.00215119
688 0.0020681
689 0.0021202
690 0.00207883
691 0.00207072
692 0.00209051
693 0.00213158
694 0.00209403
695 0.00200248
696 0.00199592
697 0.00209308
698 0.00211668
699 0.00226396
700 0.00216436
701 0.00224024
702 0.00227642
703 0.00228256
704 0.00226015
705 0.0021686
706 0.00216883
707 0.00216049
708 0.00206023
709 0.00202554
710 0.00200367
711 0.00202316
712 0.00201237
713 0.0020206
714 0.00201207
715 0.00200456
716 0.0019967
717 0.0019877
718 0.00192994
719 0.00198811
720 0.001899
721 0.00196195
722 0.00200391
723 0.0021165
724 0.00196713
725 0.00189573
726 0.00192326
727 0.00187117
728 0.00193179
729 0.00195307
730 0.00201356
731 0.00194126
732 0.00194788
733 0.00197452
734 0.00195485
735 0.00197679
736 0.00200468
737 0.00183105
738 0.00190651
739 0.00180256
740 0.00180906
741 0.0017783
742 0.00168371
743 0.00164974
744 0.0015834
745 0.00150722
746 0.00147611
747 0.00147778
748 0.00148845
749 0.00149423
750 0.00146306
751 0.00149304
752 0.00149113
753 0.00143403
754 0.00149995
755 0.00146353
756 0.00152159
757 0.0015499
758 0.00162083
759 0.00175804
760 0.00180453
761 0.00184399
762 0.00180459
763 0.0017907
764 0.00170916
765 0.00177705
766 0.00179708
767 0.00179023
768 0.00187057
769 0.00186378
770 0.00181758
771 0.00184214
772 0.00181854
773 0.00188375
774 0.0017066
775 0.0017128
776 0.00173527
777 0.00173914
778 0.00175637
779 0.00182313
780 0.00188351
781 0.00190204
782 0.00196064
783 0.00182509
784 0.0018003
785 0.00185585
786 0.00183707
787 0.0018304
788 0.00184256
789 0.00181156
790 0.0017435
791 0.00178647
792 0.00181413
793 0.00179183
794 0.00179172
795 0.0017885
796 0.00172573
797 0.00170738
798 0.0017975
799 0.00178194
800 0.00178945
801 0.00187671
802 0.00179332
803 0.00179487
804 0.00187546
805 0.00184059
806 0.00187397
807 0.00185376
808 0.00176245
809 0.00188327
810 0.00197643
811 0.00195467
812 0.00188762
813 0.00193703
814 0.00192916
815 0.00192249
816 0.001885
817 0.00196284
818 0.00183284
819 0.00191253
820 0.00191009
821 0.00181931
822 0.00180393
823 0.001885
824 0.00192612
825 0.00195301
826 0.00188214
827 0.00178903
828 0.00172681
829 0.00171375
830 0.00174814
831 0.00173002
832 0.0017007
833 0.00157279
834 0.00159389
835 0.00170279
836 0.001724
837 0.00171232
838 0.00155485
839 0.00157946
840 0.00154966
841 0.00160265
842 0.00165308
843 0.00170749
844 0.00160444
845 0.0015648
846 0.00168586
847 0.00169098
848 0.00168371
849 0.00173551
850 0.00172991
851 0.00177127
852 0.00172335
853 0.00179178
854 0.00163752
855 0.00172615
856 0.00164127
857 0.00175923
858 0.0018025
859 0.00177795
860 0.00178492
861 0.00171429
862 0.00169516
863 0.00161415
864 0.00161183
865 0.0015983
866 0.0016337
867 0.00159085
868 0.00167906
869 0.00172555
870 0.00174123
871 0.00156617
872 0.0016107
873 0.00168091
874 0.00161642
875 0.00170201
876 0.00163376
877 0.00168258
878 0.00161749
879 0.00150853
880 0.00147766
881 0.00154883
882 0.00151396
883 0.00148809
884 0.00152385
885 0.00151175
886 0.00149435
887 0.00149405
888 0.00148481
889 0.00145268
890 0.00141811
891 0.00134182
892 0.00135094
893 0.0013476
894 0.00125211
895 0.00132561
896 0.00132728
897 0.00139588
898 0.00135911
899 0.00137496
900 0.00140268
901 0.00143743
902 0.00150162
903 0.0015887
904 0.00158292
905 0.00167406
906 0.0016849
907 0.00168973
908 0.00169069
909 0.00174433
910 0.0017792
911 0.00177735
912 0.00176603
913 0.00165522
914 0.00163734
915 0.00170106
916 0.00162351
917 0.00164938
918 0.00162631
919 0.00173962
920 0.00167918
921 0.00172436
922 0.00170159
923 0.00169462
924 0.001715
925 0.00163841
926 0.0016315
927 0.00157303
928 0.00162858
929 0.00162786
930 0.0016225
931 0.00148851
932 0.00150442
933 0.00148803
934 0.00149012
935 0.00152594
936 0.00141793
937 0.00142968
938 0.0014444
939 0.00135177
940 0.00146008
941 0.00143319
942 0.00142556
943 0.00143647
944 0.00142127
945 0.00143403
946 0.00143927
947 0.00148988
948 0.00146437
949 0.00150591
950 0.00162762
951 0.00150764
952 0.00150967
953 0.00140905
954 0.00151241
955 0.0014239
956 0.00143886
957 0.00144845
958 0.00144225
959 0.00131315
960 0.00143236
961 0.00136077
962 0.00142926
963 0.0013535
964 0.00132275
965 0.00134963
966 0.00141382
967 0.00136214
968 0.00133413
969 0.00138128
970 0.00129139
971 0.00128984
972 0.00136781
973 0.00132722
974 0.00147182
975 0.00152141
976 0.00134522
977 0.00131804
978 0.0012303
979 0.00108999
980 0.00118834
981 0.0010488
982 0.00113857
983 0.00106204
984 0.00102508
985 0.00104058
986 0.000978172
987 0.00094986
988 0.00100869
989 0.000971973
990 0.00102544
991 0.00109065
992 0.00100952
993 0.00108248
994 0.00102127
995 0.00108385
996 0.00103062
997 0.00115776
998 0.00116044
999 0.00117987
1000 0.00107259
1001 0.001068
1002 0.00104088
1003 0.00107765
1004 0.00113916
1005 0.00121921
1006 0.00133705
1007 0.00145137
1008 0.00138003
1009 0.00131917
1010 0.00138962
1011 0.00125664
1012 0.00128573
1013 0.00134414
1014 0.00135332
1015 0.00136811
1016 0.00129187
1017 0.00135195
1018 0.00146866
1019 0.00142491
1020 0.00137049
1021 0.00144678
1022 0.00144219
1023 0.00143313
1024 0.00142246
1025 0.00132716
1026 0.00133044
1027 0.00138515
1028 0.00139546
1029 0.00138587
1030 0.00126284
1031 0.00115722
1032 0.00114405
1033 0.00111121
1034 0.00110674
1035 0.00105089
1036 0.00116593
1037 0.00120264
1038 0.00125581
1039 0.00121266
1040 0.00124705
1041 0.00110072
1042 0.00119513
1043 0.00118947
1044 0.00121784
1045 0.00125206
1046 0.00126678
1047 0.0012027
1048 0.00127512
1049 0.00133723
1050 0.00128466
1051 0.00132245
1052 0.00127578
1053 0.00122422
1054 0.00120354
1055 0.00130457
1056 0.00125068
1057 0.00127673
1058 0.00130022
1059 0.00141686
1060 0.00136399
1061 0.00140208
1062 0.00136095
1063 0.00139803
1064 0.00139523
1065 0.00138324
1066 0.00126243
1067 0.00121617
1068 0.00123727
1069 0.00128758
1070 0.0013566
1071 0.0013926
1072 0.00134397
1073 0.00153267
1074 0.00154233
1075 0.00156927
1076 0.00161737
1077 0.00155646
1078 0.00152552
1079 0.0015043
1080 0.00158727
1081 0.00156718
1082 0.0015924
1083 0.00158471
1084 0.00149095
1085 0.00148731
1086 0.0014897
1087 0.00147635
1088 0.00142151
1089 0.0015322
1090 0.00144637
1091 0.00141525
1092 0.00138235
1093 0.00128245
1094 0.00125694
1095 0.00127554
1096 0.00118244
1097 0.00128192
1098 0.00123817
1099 0.00129789
1100 0.00124723
1101 0.00116158
1102 0.00114316
1103 0.00112891
1104 0.00118536
1105 0.00116056
1106 0.00120091
1107 0.00108391
1108 0.00106931
1109 0.00113201
1110 0.00112575
1111 0.00109506
1112 0.00107771
1113 0.00103921
1114 0.00105906
1115 0.001068
1116 0.00103056
1117 0.00103658
1118 0.0010345
1119 0.00102735
1120 0.000896394
1121 0.000908196
1122 0.00106871
1123 0.00104189
1124 0.00101596
1125 0.00102234
1126 0.00101602
1127 0.000943005
1128 0.000979602
1129 0.000957847
1130 0.000970483
1131 0.000955284
1132 0.00100464
1133 0.00101286
1134 0.000967562
1135 0.000921965
1136 0.000901401
1137 0.000861883
1138 0.000771701
1139 0.000741124
1140 0.000789523
1141 0.000782728
1142 0.00083226
1143 0.000869274
1144 0.000870109
1145 0.000926256
1146 0.000816524
1147 0.000932515
1148 0.000998855
1149 0.00101978
1150 0.0010317
1151 0.00100571
1152 0.00103778
1153 0.00101864
1154 0.00097543
1155 0.001037
1156 0.00107306
1157 0.00106269
1158 0.00105542
1159 0.00105262
1160 0.00108612
1161 0.00106281
1162 0.0010348
1163 0.00104362
1164 0.00103068
1165 0.000947595
1166 0.00095135
1167 0.00096333
1168 0.000944555
1169 0.000921905
1170 0.000832081
1171 0.000788808
1172 0.00076139
1173 0.000742793
1174 0.000678778
1175 0.000667393
1176 0.000598311
1177 0.000449181
1178 0.000516415
1179 0.000515878
1180 0.000598609
1181 0.000583231
1182 0.000543594
1183 0.000636756
1184 0.000566363
1185 0.000613749
1186 0.000546217
1187 0.000501394
1188 0.000487447
1189 0.000533164
1190 0.000556767
1191 0.000472844
1192 0.000512242
1193 0.000353932
1194 0.000492573
1195 0.000455618
1196 0.000426292
1197 0.000422597
1198 0.000421584
1199 0.000582457
1200 0.000521362
1201 0.000526667
1202 0.00049448
1203 0.000523388
1204 0.000630796
1205 0.000677347
1206 0.000750303
1207 0.000762641
1208 0.00076884
1209 0.000789762
1210 0.000808239
1211 0.000685215
1212 0.000608802
1213 0.000662863
1214 0.000665247
1215 0.000630975
1216 0.000668168
1217 0.000618875
1218 0.000619709
1219 0.000531673
1220 0.000491619
1221 0.000500917
1222 0.000511467
1223 0.000469208
1224 0.00040108
1225 0.000437737
1226 0.000538111
1227 0.000566483
1228 0.000504315
1229 0.000577271
1230 0.000542343
1231 0.000524521
1232 0.000544369
1233 0.000479758
1234 0.000509858
1235 0.00039202
1236 0.000351548
1237 0.000310242
1238 0.000325382
1239 0.000341594
1240 0.000512242
1241 0.000449896
1242 0.000536025
1243 0.000506043
1244 0.000551045
1245 0.000562489
1246 0.000519097
1247 0.000475109
1248 0.000501275
1249 0.000538468
1250 0.000571191
1251 0.00051111
1252 0.00060606
1253 0.000593007
1254 0.000642538
1255 0.000681579
1256 0.000782192
1257 0.000745952
1258 0.00075537
1259 0.000822663
1260 0.000781
1261 0.000586033
1262 0.000597954
1263 0.000663221
1264 0.000631154
1265 0.00072366
1266 0.000776649
1267 0.000755966
1268 0.000760972
1269 0.000703752
1270 0.000815272
1271 0.000675201
1272 0.000813365
1273 0.000850201
1274 0.000915945
1275 0.000962615
1276 0.00101417
1277 0.00099504
1278 0.000947773
1279 0.00105941
1280 0.0010196
1281 0.00107133
1282 0.000974894
1283 0.000996172
1284 0.00101769
1285 0.00102377
1286 0.000914991
1287 0.00091964
1288 0.000860572
1289 0.000780225
1290 0.000824213
1291 0.000843525
1292 0.000811219
1293 0.000907063
1294 0.00101376
1295 0.00103688
1296 0.00101858
1297 0.00103915
1298 0.00108534
1299 0.0010789
1300 0.0011394
1301 0.00116384
1302 0.00118101
1303 0.00106084
1304 0.00100839
1305 0.00106722
1306 0.00103945
1307 0.00106716
1308 0.00123167
1309 0.00111759
1310 0.00118035
1311 0.00118262
1312 0.00118393
1313 0.00108325
1314 0.00113612
1315 0.00107753
1316 0.00109923
1317 0.00108689
1318 0.00106555
1319 0.00105762
1320 0.000950933
1321 0.000858605
1322 0.000939727
1323 0.000920475
1324 0.000951707
1325 0.00104868
1326 0.00108272
1327 0.00112903
1328 0.00111866
